Data from S030561_13-51-58-367.txt Node
Date: Thu Feb 22 13:51:58 GMT 2018
User: darren.whitaker
Spectrometer: S03056
Trigger mode: 0
Resolution mode: 1024 pixels
Integration Time (sec): 1.500000E0
Scans to average: 1
Nonlinearity correction enabled: false
Boxcar width: 0
Baseline correction enabled: true
XAxis mode: Wavelengths
Number of Pixels in Spectrum: 1024
>>>>>Begin Spectral Data<<<<<
184.595	35
185.045	4
185.495	27
185.945	31
186.395	-23
186.845	45
187.295	28
187.745	55
188.195	56
188.646	4
189.096	45
189.546	36
189.997	49
190.447	60
190.898	64
191.348	38
191.799	53
192.249	47
192.7	48
193.151	46
193.602	48
194.053	5
194.504	53
194.955	6
195.406	31
195.857	54
196.308	51
196.759	45
197.21	38
197.662	49
198.113	58
198.564	43
199.016	45
199.467	12
199.919	51
200.371	20
200.822	60
201.274	60
201.726	30
202.178	37
202.63	60
203.082	49
203.534	67
203.986	55
204.438	47
204.89	75
205.342	57
205.794	38
206.247	73
206.699	35
207.152	49
207.604	72
208.057	64
208.509	73
208.962	76
209.415	79
209.867	87
210.32	72
210.773	45
211.226	90
211.679	36
212.132	31
212.585	49
213.038	104
213.491	85
213.944	79
214.398	73
214.851	85
215.304	101
215.758	118
216.211	99
216.665	114
217.119	115
217.572	91
218.026	104
218.48	137
218.933	160
219.387	163
219.841	154
220.295	157
220.749	175
221.203	148
221.657	185
222.112	186
222.566	177
223.02	207
223.474	213
223.929	196
224.383	212
224.838	238
225.292	237
225.747	247
226.202	243
226.656	252
227.111	216
227.566	275
228.021	277
228.476	276
228.931	287
229.386	295
229.841	310
230.296	338
230.751	354
231.206	347
231.661	353
232.117	349
232.572	370
233.027	376
233.483	348
233.938	375
234.394	421
234.85	442
235.305	459
235.761	470
236.217	498
236.673	463
237.129	500
237.585	511
238.041	548
238.497	565
238.953	591
239.409	560
239.865	615
240.321	627
240.778	637
241.234	604
241.69	610
242.147	684
242.603	701
243.06	740
243.517	764
243.973	749
244.43	744
244.887	777
245.343	775
245.8	802
246.257	798
246.714	822
247.171	856
247.628	889
248.085	901
248.543	912
249	914
249.457	927
249.914	910
250.372	964
250.829	983
251.287	1005
251.744	1011
252.202	935
252.659	1086
253.117	1019
253.575	1079
254.033	1110
254.491	1139
254.948	1151
255.406	1189
255.864	1205
256.322	1226
256.78	1218
257.239	1183
257.697	1274
258.155	1229
258.613	1298
259.072	1332
259.53	1319
259.988	1325
260.447	1321
260.906	1330
261.364	1343
261.823	1336
262.281	1378
262.74	1390
263.199	1402
263.658	1390
264.117	1374
264.576	1385
265.035	1410
265.494	1470
265.953	1471
266.412	1489
266.871	1472
267.33	1466
267.79	1492
268.249	1501
268.708	1481
269.168	1496
269.627	1522
270.087	1528
270.546	1546
271.006	1539
271.466	1516
271.926	1538
272.385	1508
272.845	1575
273.305	1601
273.765	1543
274.225	1583
274.685	1598
275.145	1597
275.605	1539
276.065	1586
276.526	1613
276.986	1631
277.446	1612
277.907	1627
278.367	1645
278.828	1644
279.288	1612
279.749	1700
280.209	1690
280.67	1685
281.131	1715
281.592	1742
282.052	1758
282.513	1805
282.974	1780
283.435	1808
283.896	1883
284.357	1883
284.818	1849
285.28	1820
285.741	1866
286.202	1807
286.663	1925
287.125	1928
287.586	1963
288.048	2061
288.509	2027
288.971	2059
289.432	2083
289.894	2071
290.356	2098
290.818	2049
291.279	2097
291.741	2138
292.203	2139
292.665	2127
293.127	2189
293.589	2167
294.051	2247
294.513	2210
294.976	2233
295.438	2267
295.9	2254
296.363	2288
296.825	2338
297.287	2386
297.75	2439
298.212	2402
298.675	2376
299.138	2450
299.6	2437
300.063	2450
300.526	2489
300.989	2604
301.452	2645
301.914	2595
302.377	2687
302.84	2627
303.304	2759
303.767	2823
304.23	2833
304.693	2824
305.156	2815
305.62	2884
306.083	2947
306.546	2964
307.01	2985
307.473	3017
307.937	3019
308.4	3031
308.864	3005
309.328	3058
309.792	2974
310.255	3059
310.719	3117
311.183	3111
311.647	3128
312.111	3149
312.575	3148
313.039	3206
313.503	3241
313.967	3223
314.432	3270
314.896	3200
315.36	3231
315.825	3288
316.289	3245
316.753	3330
317.218	3402
317.683	3357
318.147	3394
318.612	3392
319.076	3417
319.541	3410
320.006	3473
320.471	3439
320.936	3374
321.401	3369
321.866	3423
322.331	3421
322.796	3409
323.261	3459
323.726	3410
324.191	3360
324.656	3386
325.122	3412
325.587	3383
326.053	3418
326.518	3407
326.983	3373
327.449	3437
327.915	3453
328.38	3432
328.846	3445
329.312	3416
329.777	3491
330.243	3418
330.709	3327
331.175	3465
331.641	3473
332.107	3594
332.573	3670
333.039	3610
333.505	3570
333.972	3546
334.438	3727
334.904	3673
335.37	3688
335.837	3662
336.303	3647
336.77	3761
337.236	3731
337.703	3667
338.169	3787
338.636	3773
339.103	3837
339.569	3835
340.036	3831
340.503	3777
340.97	3782
341.437	3834
341.904	3915
342.371	3923
342.838	3904
343.305	3853
343.772	3860
344.24	3780
344.707	3822
345.174	3818
345.641	3753
346.109	3784
346.576	3771
347.044	3648
347.511	3735
347.979	3638
348.447	3771
348.914	3780
349.382	3699
349.85	3667
350.318	3700
350.785	3690
351.253	3824
351.721	3636
352.189	3772
352.657	3692
353.125	3638
353.594	3736
354.062	3773
354.53	3707
354.998	3692
355.466	3686
355.935	3713
356.403	3618
356.872	3637
357.34	3758
357.809	3653
358.277	3777
358.746	3756
359.215	3806
359.683	3750
360.152	3863
360.621	3806
361.09	3866
361.559	3892
362.028	3856
362.497	3916
362.966	3836
363.435	3832
363.904	4115
364.373	3936
364.842	3924
365.312	4022
365.781	3939
366.25	4027
366.72	4006
367.189	4051
367.658	4043
368.128	4131
368.598	4101
369.067	4141
369.537	4072
370.007	4069
370.476	4123
370.946	3994
371.416	4152
371.886	3971
372.356	4028
372.826	4058
373.296	4025
373.766	4015
374.236	4030
374.706	4044
375.176	3959
375.647	3994
376.117	3950
376.587	4004
377.058	4079
377.528	4053
377.998	4082
378.469	4115
378.94	4153
379.41	4065
379.881	4086
380.351	4053
380.822	4006
381.293	4029
381.764	4034
382.235	3996
382.706	3885
383.177	3825
383.648	4109
384.119	4032
384.59	4003
385.061	3966
385.532	3986
386.003	4086
386.474	3864
386.946	3904
387.417	4117
387.888	3962
388.36	3856
388.831	3920
389.303	4020
389.774	3859
390.246	4065
390.718	3959
391.189	3836
391.661	4112
392.133	3872
392.605	3916
393.077	3761
393.549	4041
394.021	4235
394.493	3965
394.965	4003
395.437	3853
395.909	3847
396.381	4145
396.853	3779
397.325	4242
397.798	4025
398.27	3919
398.743	4075
399.215	4060
399.687	4159
400.16	4295
400.633	4018
401.105	3704
401.578	3878
402.051	3930
402.523	3875
402.996	3896
403.469	3961
403.942	3736
404.415	3914
404.888	3910
405.361	3829
405.834	3717
406.307	3776
406.78	3714
407.253	3945
407.726	3762
408.199	3896
408.673	3831
409.146	3595
409.619	3703
410.093	3611
410.566	3784
411.04	3587
411.513	3594
411.987	3637
412.461	3658
412.934	3615
413.408	3552
413.882	3443
414.356	3560
414.829	3561
415.303	3660
415.777	3525
416.251	3531
416.725	3628
417.199	3287
417.673	3431
418.148	3308
418.622	3602
419.096	3335
419.57	3569
420.045	3447
420.519	3447
420.993	3561
421.468	3465
421.942	3456
422.417	3488
422.891	3615
423.366	3516
423.841	3529
424.315	3421
424.79	3559
425.265	3488
425.74	3322
426.215	3405
426.689	3363
427.164	3553
427.639	3445
428.114	3585
428.589	3636
429.065	3588
429.54	3487
430.015	3707
430.49	3369
430.965	3489
431.441	3494
431.916	3475
432.392	3412
432.867	3401
433.342	3438
433.818	3392
434.294	3386
434.769	3525
435.245	3361
435.721	3508
436.196	3567
436.672	3352
437.148	3347
437.624	3519
438.1	3691
438.576	3400
439.052	3504
439.528	3576
440.004	3360
440.48	3370
440.956	3419
441.432	3388
441.908	3565
442.385	3542
442.861	3392
443.337	3498
443.814	3353
444.29	3404
444.767	3461
445.243	3573
445.72	3362
446.196	3573
446.673	3605
447.15	3383
447.626	3524
448.103	3425
448.58	3418
449.057	3296
449.534	3516
450.01	3420
450.487	3365
450.964	3236
451.442	3557
451.919	3187
452.396	3255
452.873	3302
453.35	3349
453.827	3519
454.305	3211
454.782	3115
455.259	3016
455.737	3250
456.214	3066
456.692	3087
457.169	3097
457.647	3097
458.124	3146
458.602	3259
459.08	3068
459.557	3181
460.035	3233
460.513	3116
460.991	3237
461.469	3058
461.947	3128
462.425	3132
462.903	3066
463.381	3174
463.859	3196
464.337	3175
464.815	3246
465.293	3150
465.772	3111
466.25	3096
466.728	3335
467.207	3075
467.685	3110
468.164	3069
468.642	2943
469.121	3025
469.599	2996
470.078	3003
470.556	2891
471.035	2900
471.514	2912
471.993	2991
472.471	2843
472.95	3045
473.429	3007
473.908	3088
474.387	3210
474.866	3172
475.345	3363
475.824	3210
476.303	3263
476.782	3322
477.262	3314
477.741	3411
478.22	3404
478.7	3412
479.179	3444
479.658	3468
480.138	3496
480.617	3557
481.097	3468
481.576	3552
482.056	3581
482.535	3682
483.015	3723
483.495	3902
483.975	3917
484.454	4035
484.934	4017
485.414	3969
485.894	4050
486.374	4040
486.854	4029
487.334	4011
487.814	3949
488.294	3884
488.774	3800
489.254	3712
489.735	3568
490.215	3546
490.695	3489
491.176	3498
491.656	3340
492.136	3513
492.617	3442
493.097	3467
493.578	3429
494.058	3535
494.539	3559
495.02	3488
495.5	3449
495.981	3538
496.462	3512
496.943	3451
497.423	3463
497.904	3429
498.385	3378
498.866	3391
499.347	3396
499.828	3385
500.309	3235
500.79	3375
501.271	3383
501.753	3411
502.234	3234
502.715	3410
503.196	3349
503.678	3383
504.159	3408
504.64	3323
505.122	3283
505.603	3329
506.085	3313
506.566	3253
507.048	3273
507.53	3270
508.011	3093
508.493	3262
508.975	3199
509.457	3190
509.938	3144
510.42	3172
510.902	3161
511.384	3200
511.866	3186
512.348	3136
512.83	3064
513.312	3066
513.794	3092
514.276	2984
514.759	3023
515.241	2959
515.723	2996
516.206	2888
516.688	2881
517.17	2951
517.653	2864
518.135	2851
518.618	2892
519.1	2837
519.583	2773
520.065	2760
520.548	2747
521.031	2737
521.513	2645
521.996	2719
522.479	2660
522.962	2698
523.445	2615
523.927	2637
524.41	2629
524.893	2591
525.376	2562
525.859	2546
526.343	2573
526.826	2518
527.309	2457
527.792	2551
528.275	2486
528.759	2501
529.242	2471
529.725	2444
530.209	2405
530.692	2396
531.175	2429
531.659	2426
532.142	2413
532.626	2420
533.11	2418
533.593	2408
534.077	2390
534.561	2427
535.044	2395
535.528	2431
536.012	2420
536.496	2378
536.98	2446
537.464	2420
537.948	2380
538.432	2402
538.916	2391
539.4	2427
539.884	2414
540.368	2383
540.852	2449
541.336	2389
541.821	2436
542.305	2435
542.789	2412
543.274	2439
543.758	2418
544.243	2408
544.727	2483
545.211	2475
545.696	2521
546.181	2547
546.665	2546
547.15	2465
547.635	2518
548.119	2447
548.604	2466
549.089	2513
549.574	2525
550.059	2485
550.543	2514
551.028	2497
551.513	2432
551.998	2485
552.483	2535
552.968	2563
553.454	2530
553.939	2665
554.424	2614
554.909	2614
555.394	2620
555.88	2620
556.365	2604
556.85	2583
557.336	2635
557.821	2620
558.307	2688
558.792	2668
559.278	2736
559.763	2735
560.249	2767
560.735	2836
561.22	2883
561.706	2930
562.192	2942
562.677	2982
563.163	2982
563.649	2970
564.135	2990
564.621	2989
565.107	2983
565.593	3070
566.079	3102
566.565	3205
567.051	3278
567.537	3420
568.023	3531
568.51	3744
568.996	3880
569.482	4050
569.968	4201
570.455	4382
570.941	4599
571.428	4705
571.914	4878
572.4	5067
572.887	5193
573.374	5223
573.86	5326
574.347	5366
574.833	5554
575.32	5748
575.807	5903
576.294	5897
576.78	6018
577.267	6014
577.754	5966
578.241	6188
578.728	6405
579.215	6614
579.702	6665.5
580.189	6717
580.676	6458
581.163	6393
581.65	6464
582.137	6570
582.625	6598.5
583.112	6627
583.599	6515
584.086	6439
584.574	6321.5
585.061	6204
585.548	6206
586.036	6060
586.523	6132
587.011	6010
587.498	5884
587.986	5698
588.474	5405
588.961	5431
589.449	5332
589.937	5278
590.424	5317
590.912	5365
591.4	5356
591.888	5411
592.376	5458
592.864	5317
593.352	5442
593.84	5408
594.328	5471
594.816	5546
595.304	5400
595.792	5374
596.28	5359
596.768	5563
597.256	5672
597.745	5732
598.233	5808
598.721	5852
599.209	5926
599.698	5945
600.186	5898
600.675	5977
601.163	5911
601.652	5900
602.14	5833
602.629	5767
603.117	5654
603.606	5711
604.095	5809
604.583	5752
605.072	5875
605.561	6051
606.05	5842
606.539	5906
607.028	5805
607.516	5753
608.005	5831
608.494	5591
608.983	5459
609.472	5396
609.961	5315
610.451	5237
610.94	5074
611.429	5232
611.918	5224
612.407	5173
612.897	5198.5
613.386	5224
613.875	5253
614.365	5090
614.854	5210
615.343	5020
615.833	5025
616.322	4953
616.812	4841
617.301	4705
617.791	4618
618.281	4391
618.77	4429
619.26	4400
619.75	4273
620.24	4276
620.729	4268
621.219	4294
621.709	4320
622.199	4269
622.689	4327
623.179	4234
623.669	4193
624.159	4247
624.649	4236
625.139	4102
625.629	4088
626.119	4111
626.609	4019
627.099	3952
627.59	3887
628.08	3858
628.57	3793
629.061	3763
629.551	3698
630.041	3638
630.532	3618
631.022	3574
631.513	3469
632.003	3403
632.494	3313
632.984	3408
633.475	3354
633.966	3359
634.456	3347
634.947	3350
635.438	3339
635.929	3259
636.419	3336
636.91	3355
637.401	3303
637.892	3364
638.383	3269
638.874	3237
639.365	3196
639.856	3254
640.347	3204
640.838	3208
641.329	3097
641.82	3214
642.311	3189
642.803	3237
643.294	3169
643.785	3217
644.277	3181
644.768	3240
645.259	3164
645.751	3305
646.242	3249
646.734	3348
647.225	3358
647.717	3347
648.208	3372
648.7	3454
649.191	3465
649.683	3514
650.175	3508
650.666	3465
651.158	3446
651.65	3505
652.142	4015
652.633	4735
653.125	5542
653.617	6160
654.109	6453
654.601	6586
655.093	6815
655.585	6760
656.077	6907
656.569	6746
657.061	6678
657.553	6377
658.046	5453
658.538	4695
659.03	3950
659.522	3764
660.015	3488
660.507	3400
660.999	3375
661.492	3397
661.984	3336
662.476	3350
662.969	3433
663.461	3395
663.954	3392
664.446	3419
664.939	3400
665.432	3434
665.924	3407
666.417	3420
666.91	3468
667.402	3415
667.895	3479
668.388	3507
668.881	3553
